MTS793|BTW|ENU|1|0|.|/|:|1|0|0|A

Data Header:                                                Time:     2.09375   s         3/30/2023 1:14:39 PM
Data Acquisition: Timed
Station Name: 10504712.cfg
Test File Name: Tracción.tst
Axial Displacement Axial Force Running Time
mm        N         s
0.00081640901 -0.08828938 0.020507813
0.0037886319 2.4361908 0.030273438
0.016528787 10.220632 0.040039063
0.033538438 21.639317 0.049804688
0.051366072 32.524914 0.059570313
0.069156148 42.720882 0.069335938
0.085179016 53.709148 0.079101563
0.10117963 64.175354 0.088867188
0.11853569 74.838326 0.098632813
0.13521066 85.033104 0.10839844
0.15089366 95.106216 0.11816406
0.16743354 105.05587 0.12792969
0.18406758 115.54234 0.13769531
0.2002942 125.60755 0.14746094
0.21740189 136.69461 0.15722656
0.23458214 146.93491 0.16699219
0.25058937 156.4373 0.17675781
0.26729283 166.81001 0.18652344
0.2832239 176.18849 0.19628906
0.29981416 186.53653 0.20605469
0.3165338 197.11241 0.21582031
0.33301675 207.56923 0.22558594
0.34938705 217.16281 0.23535156
0.36534393 226.8961 0.24511719
0.3825022 236.32967 0.25488281
0.3991982 245.90842 0.26464844
0.41566831 256.53207 0.27441406
0.43211722 266.45624 0.28417969
0.44785061 276.65451 0.29394531
0.46530423 286.28528 0.30371094
0.48176745 295.28683 0.31347656
0.49802655 304.81989 0.32324219
0.5144031 315.04123 0.33300781
0.53174955 325.29169 0.34277344
0.54816252 334.70273 0.35253906
0.56463885 344.16293 0.36230469
0.58030164 352.95819 0.37207031
0.59793359 362.32294 0.38183594
0.61352026 371.82004 0.39160156
0.63100344 381.86096 0.40136719
0.64672601 391.53046 0.41113281
0.66366363 400.53464 0.42089844
0.67974806 409.49271 0.43066406
0.69729239 418.73068 0.44042969
0.71306211 427.8403 0.45019531
0.72970772 436.99817 0.45996094
0.74550265 446.79437 0.46972656
0.76309115 455.41193 0.47949219
0.77900815 464.6239 0.48925781
0.79591161 473.16397 0.49902344
0.81268775 482.00696 0.50878906
0.82912612 490.67038 0.51855469
0.84600931 500.24872 0.52832031
0.86154157 509.22919 0.53808594
0.87850475 517.95886 0.54785156
0.89537275 526.3432 0.55761719
0.91160738 534.3858 0.56738281
0.92777795 543.19098 0.57714844
0.94495445 551.8924 0.58691406
0.96146214 560.68079 0.59667969
0.97813576 568.63513 0.60644531
0.99417919 576.46002 0.61621094
1.0102404 584.98242 0.62597656
1.0272313 593.21069 0.63574219
1.0441648 601.93524 0.64550781
1.0612015 610.49066 0.65527344
1.0782546 618.65057 0.66503906
1.0941705 625.62598 0.67480469
1.1105281 633.52301 0.68457031
1.127429  641.28296 0.69433594
1.1445956 649.36243 0.70410156
1.1612124 658.0285  0.71386719
1.1786944 665.99908 0.72363281
1.1940672 673.4541  0.73339844
1.2107822 680.47247 0.74316406
1.2277256 687.76306 0.75292969
1.2441266 694.73639 0.76269531
1.2607151 702.13007 0.77246094
1.2772139 709.88306 0.78222656
1.2934932 716.18091 0.79199219
1.3103775 723.47583 0.80175781
1.326941  730.16052 0.81152344
1.3435191 736.50189 0.82128906
1.359682  743.48291 0.83105469
1.3767401 750.6156  0.84082031
1.3935134 757.28711 0.85058594
1.4100406 763.89502 0.86035156
1.4268997 769.64703 0.87011719
1.4434706 775.89941 0.87988281
1.459875  782.01654 0.88964844
1.4760684 788.05231 0.89941406
1.4918704 794.43622 0.90917969
1.5092462 800.02618 0.91894531
1.5248271 805.52557 0.92871094
1.541702  810.9483  0.93847656
1.5588466 816.04773 0.94824219
1.5756782 822.18536 0.95800781
1.5913814 827.34961 0.96777344
1.6084278 832.74109 0.97753906
1.6248071 837.39301 0.98730469
1.6418839 841.53125 0.99707031
1.657846  846.08014 1.0068359
1.6740637 850.55811 1.0166016
1.6906798 855.51038 1.0263672
1.7071985 859.68164 1.0361328
1.723067  863.69879 1.0458984
1.7404726 867.38153 1.0556641
1.757024  870.5921  1.0654297
1.7741104 874.06006 1.0751953
1.7905374 877.91815 1.0849609
1.8074856 881.16986 1.0947266
1.8239681 884.72241 1.1044922
1.8403907 886.9278  1.1142578
1.8565919 889.09814 1.1240234
1.8732591 891.59131 1.1337891
1.8903074 893.72778 1.1435547
1.906531  895.82697 1.1533203
1.9231733 897.90338 1.1630859
1.9399002 898.67175 1.1728516
1.9564545 899.9574  1.1826172
1.9720037 900.40515 1.1923828
1.9897931 900.8197  1.2021484
2.006474  900.91492 1.2119141
2.0227714 901.62646 1.2216797
2.0396106 900.97418 1.2314453
2.0560477 899.65607 1.2412109
2.072598  898.22253 1.2509766
2.0893497 896.44879 1.2607422
2.1053655 894.82745 1.2705078
2.1220889 892.84869 1.2802734
2.1385694 889.52258 1.2900391
2.155504  886.32703 1.2998047
2.1721897 882.39294 1.3095703
2.1887176 877.93042 1.3193359
2.2055411 873.3028  1.3291016
2.2222898 868.46301 1.3388672
2.2383792 863.44177 1.3486328
2.2551334 857.03442 1.3583984
2.2717984 849.80121 1.3681641
2.2883666 841.53174 1.3779297
2.3053474 833.5329  1.3876953
2.3220632 824.94879 1.3974609
2.3388977 815.62616 1.4072266
2.3557229 804.77277 1.4169922
2.3726294 791.97314 1.4267578
2.3892376 778.23175 1.4365234
2.4063911 763.414   1.4462891
2.4230421 747.11395 1.4560547
2.4397085 727.54852 1.4658203
2.4563489 701.61975 1.4755859
2.486058  -157.24249 1.4853516
2.509011  -33.780708 1.4951172
2.5100849 55.475681 1.5048828
2.5285299 15.52932  1.5146484
2.5444226 -6.3817205 1.5244141
2.5607328 -7.6015291 1.5341797
2.5780914 -8.923337 1.5439453
2.5940721 1.751408  1.5537109
2.610383  0.25197864 1.5634766
2.6264853 -13.359934 1.5732422
2.6442173 -15.038029 1.5830078
2.6601245 -4.4585018 1.5927734
2.6764414 2.908185  1.6025391
2.6929381 1.7217547 1.6123047
2.7089601 -2.2797287 1.6220703
2.7261739 -5.497262 1.6318359
2.7425621 -7.7908487 1.6416016
2.7602377 -6.8116188 1.6513672
2.7766201 -3.8251281 1.6611328
2.792712  -3.3258648 1.6708984
2.8089938 -3.3339114 1.6806641
2.8255806 -3.7886202 1.6904297
2.8416486 -4.5416503 1.7001953
2.858634  -5.1107259 1.7099609
2.875185  -5.9049578 1.7197266
2.8920133 -5.4746866 1.7294922
2.908113  -5.2002816 1.7392578
2.9248214 -4.8598647 1.7490234
2.9410536 -5.3914638 1.7587891
2.9582181 -4.761219 1.7685547
2.97508   -4.2415409 1.7783203
2.9910271 -4.9638748 1.7880859
3.0080791 -4.9786272 1.7978516
3.0248439 -5.581677 1.8076172
3.0414083 -6.297678 1.8173828
3.05758   -5.4080782 1.8271484
3.0750794 -5.2280722 1.8369141
3.0911202 -4.3798237 1.8466797
3.1074231 -4.3290854 1.8564453
3.1248744 -4.9655142 1.8662109
3.1406844 -5.3836403 1.8759766
3.1572664 -5.6402388 1.8857422
3.1735895 -5.4280462 1.8955078
3.1906297 -4.5721979 1.9052734
3.2066493 -4.6861172 1.9150391
3.2234204 -4.6637654 1.9248047
3.240099  -4.9904733 1.9345703
3.2561305 -5.5615606 1.9443359
3.2727199 -5.4493546 1.9541016
3.2893586 -5.3615122 1.9638672
3.3061271 -5.0967188 1.9736328
3.3227088 -4.7445297 1.9833984
3.3393149 -5.5146217 1.9931641
3.3554318 -5.2313509 2.0029297
3.3719425 -5.4898858 2.0126953
3.3884716 -5.4781141 2.0224609
3.405319  -4.8589706 2.0322266
3.4207156 -4.822463 2.0419922
3.4384069 -5.4245443 2.0517578
3.455056  -5.6108832 2.0615234
3.4713809 -6.143302 2.0712891
3.4886336 -5.4211912 2.0810547
3.5050099 -4.9889088 2.0908203

