MTS793|BTW|ENU|1|0|.|/|:|1|0|0|A

Data Header:                                                Time:     2.4931641 s         3/30/2023 1:12:51 PM
Data Acquisition: Timed
Station Name: 10504712.cfg
Test File Name: Tracción.tst
Axial Displacement Axial Force Running Time
mm        N         s
1.329463e-05 0.13649464 0.020507813
0.0034239143 1.9279867 0.030273438
0.016352663 9.9328156 0.040039063
0.032430515 21.0163 0.049804688
0.049126849 31.849817 0.059570313
0.066024393 42.607861 0.069335938
0.083332509 53.062439 0.079101563
0.099802993 63.103737 0.088867188
0.11645639 74.121803 0.098632813
0.13314249 84.245804 0.10839844
0.14976959 95.18512 0.11816406
0.16692789 105.88646 0.12792969
0.18248741 115.93275 0.13769531
0.19891725 126.22714 0.14746094
0.21620782 136.57123 0.15722656
0.23247352 146.7719 0.16699219
0.24969181 157.1545 0.17675781
0.26539737 167.63397 0.18652344
0.28280121 177.92694 0.19628906
0.29898217 187.84009 0.20605469
0.31553522 197.06429 0.21582031
0.33252802 207.65088 0.22558594
0.34887177 218.18631 0.23535156
0.36487871 228.45723 0.24511719
0.38159364 238.70125 0.25488281
0.3984794 247.89647 0.26464844
0.41414016 257.57617 0.27441406
0.43129003 267.5423 0.28417969
0.44835749 277.75787 0.29394531
0.46437812 287.95346 0.30371094
0.48054102 297.63962 0.31347656
0.49738413 307.05707 0.32324219
0.51416171 316.71198 0.33300781
0.52971423 326.14941 0.34277344
0.54711276 335.53751 0.35253906
0.56362289 345.6886 0.36230469
0.58023226 355.66724 0.37207031
0.59629977 365.12695 0.38183594
0.61333048 374.03308 0.39160156
0.62886292 383.67636 0.40136719
0.64650679 393.08951 0.41113281
0.6625824 402.44638 0.42089844
0.67925352 412.62961 0.43066406
0.69653279 421.88629 0.44042969
0.71249932 431.20081 0.45019531
0.72913748 439.77661 0.45996094
0.74519104 448.89133 0.46972656
0.76139325 457.74423 0.47949219
0.77834082 467.46777 0.48925781
0.79504603 476.77655 0.49902344
0.81145096 485.26004 0.50878906
0.82816863 494.06424 0.51855469
0.8444041 502.82974 0.52832031
0.86165273 511.43295 0.53808594
0.87847823 520.83844 0.54785156
0.89457065 530.23694 0.55761719
0.91155636 539.09186 0.56738281
0.92768288 546.96228 0.57714844
0.94444108 554.88104 0.58691406
0.96096426 563.37531 0.59667969
0.97659492 572.21503 0.60644531
0.9941017 581.56665 0.61621094
1.0101557 589.74561 0.62597656
1.0273632 597.85815 0.63574219
1.0430989 605.88177 0.64550781
1.0601808 613.52814 0.65527344
1.0769161 622.08386 0.66503906
1.093289  630.35675 0.67480469
1.1102492 638.47015 0.68457031
1.1266067 646.61255 0.69433594
1.1424994 653.80011 0.70410156
1.1588817 661.41119 0.71386719
1.1761048 668.7572  0.72363281
1.1920785 676.77374 0.73339844
1.208997  684.79266 0.74316406
1.2259357 693.03394 0.75292969
1.2421172 700.05115 0.76269531
1.2584199 707.08923 0.77246094
1.2753029 713.96716 0.78222656
1.2921816 721.41638 0.79199219
1.30828   729.09766 0.80175781
1.325417  736.19714 0.81152344
1.3413203 743.02466 0.82128906
1.3583791 749.24982 0.83105469
1.3746341 755.68695 0.84082031
1.3915626 762.56329 0.85058594
1.406836  769.47546 0.86035156
1.4240309 776.10016 0.87011719
1.4414226 782.37103 0.87988281
1.4574864 789.17023 0.88964844
1.4735826 794.87274 0.89941406
1.4909831 800.92297 0.90917969
1.5073148 807.23199 0.91894531
1.5233955 813.38812 0.92871094
1.5405338 818.78467 0.93847656
1.5569481 824.59363 0.94824219
1.5735283 829.48212 0.95800781
1.5901312 834.92084 0.96777344
1.6062371 840.01385 0.97753906
1.6242751 845.3634  0.98730469
1.639725  850.8103  0.99707031
1.656733  855.11292 1.0068359
1.6722714 859.32788 1.0166016
1.6900009 864.06812 1.0263672
1.7057712 868.15381 1.0361328
1.7227883 872.93738 1.0458984
1.7390037 877.24829 1.0556641
1.7552162 881.5658  1.0654297
1.7715222 885.10858 1.0751953
1.7885743 887.99994 1.0849609
1.8050815 891.49048 1.0947266
1.821974  894.7179  1.1044922
1.8385214 898.41333 1.1142578
1.8554865 901.69287 1.1240234
1.8720032 904.04279 1.1337891
1.8891259 906.45624 1.1435547
1.905211  908.45477 1.1533203
1.9221449 910.45697 1.1630859
1.938476  912.88116 1.1728516
1.9550077 914.40454 1.1826172
1.9722764 915.64606 1.1923828
1.9893644 916.52484 1.2021484
2.0053625 916.58612 1.2119141
2.0218432 917.15845 1.2216797
2.0386388 917.54431 1.2314453
2.0554934 917.61127 1.2412109
2.071723  916.86041 1.2509766
2.0879304 915.72382 1.2607422
2.1049318 914.24103 1.2705078
2.1204648 912.14996 1.2802734
2.1380484 910.09467 1.2900391
2.1542261 908.00537 1.2998047
2.1705549 905.24518 1.3095703
2.1874049 901.98926 1.3193359
2.2047536 897.92096 1.3291016
2.2209167 893.1167  1.3388672
2.237839  887.54407 1.3486328
2.2547245 882.06067 1.3583984
2.2715669 875.54321 1.3681641
2.2882335 866.69183 1.3779297
2.3046508 855.48975 1.3876953
2.3216674 841.26245 1.3974609
2.3384006 819.9068  1.4072266
2.3558097 773.26587 1.4169922
2.383672  -26.250557 1.4267578
2.4029331 58.897064 1.4365234
2.4109235 36.99638  1.4462891
2.428225  -5.4772196 1.4560547
2.4452071 -10.42135 1.4658203
2.4602342 -5.5471063 1.4755859
2.4776974 3.8027763 1.4853516
2.4952197 3.7772207 1.4951172
2.5112336 -12.9202  1.5048828
2.5275376 -17.238409 1.5146484
2.5445411 -4.5944004 1.5244141
2.5606592 3.3087282 1.5341797
2.5772641 1.5601516 1.5439453
2.5939491 -2.7552991 1.5537109
2.6103866 -6.7827106 1.5634766
2.6270998 -9.3771515 1.5732422
2.6427124 -8.4247437 1.5830078
2.6601007 -5.795434 1.5927734
2.6761088 -3.5463274 1.6025391
2.6936576 -3.4292042 1.6123047
2.709686  -2.9908121 1.6220703
2.7263658 -3.9830804 1.6318359
2.7431846 -4.8851967 1.6416016
2.7592852 -6.4405055 1.6513672
2.7759209 -6.8391857 1.6611328
2.7924895 -5.4139643 1.6708984
2.8090746 -3.9045513 1.6806641
2.8255289 -3.3891201 1.6904297
2.8416035 -4.2485447 1.7001953
2.8589065 -5.7478247 1.7099609
2.8754506 -6.2613192 1.7197266
2.8914297 -5.9125571 1.7294922
2.908752  -5.4382534 1.7392578
2.9255352 -4.9199162 1.7490234
2.9422898 -4.8436971 1.7587891
2.9584527 -4.7931075 1.7685547
2.9743848 -5.8124213 1.7783203
2.9913363 -5.7365746 1.7880859
3.0076263 -5.1543117 1.7978516
3.0245864 -5.3995104 1.8076172
3.0404959 -4.9217792 1.8173828
3.0568962 -5.1076708 1.8271484
3.0745757 -5.6804714 1.8369141
3.0906174 -5.3793936 1.8466797
3.1072807 -5.6408348 1.8564453
3.1238301 -5.1606445 1.8662109
3.140034  -5.3573399 1.8759766
3.1564374 -5.2426758 1.8857422
3.1733947 -5.6222825 1.8955078
3.1896756 -5.7195129 1.9052734
3.2062497 -5.817935 1.9150391
3.2234004 -5.4980068 1.9248047
3.2399685 -5.3566694 1.9345703
3.256206  -5.243495 1.9443359
3.2727301 -5.602613 1.9541016
3.2892959 -6.0674548 1.9638672
3.305445  -5.4820628 1.9736328
3.3222327 -5.6634846 1.9833984
3.3390276 -5.6564064 1.9931641
3.3553865 -5.2121282 2.0029297
3.3725579 -5.7899952 2.0126953
3.3890102 -5.651042 2.0224609
3.4050219 -6.1128287 2.0322266
3.421319  -5.9015303 2.0419922
3.438385  -5.7683887 2.0517578
3.4544435 -4.4521689 2.0615234
3.4720943 -5.2233787 2.0712891
3.4879153 -5.5811553 2.0810547
3.5043807 -6.1011314 2.0908203
3.5217199 -6.0959907 2.1005859
3.5378661 -5.7295709 2.1103516
3.55528   -5.6695194 2.1201172
3.5705056 -4.9211082 2.1298828
3.5875816 -5.9374423 2.1396484
3.6037483 -5.4312496 2.1494141
3.6205978 -6.216094 2.1591797
3.636678  -5.897954 2.1689453
3.6537216 -5.3580852 2.1787109
3.6704538 -5.1318111 2.1884766
3.6863835 -5.2857399 2.1982422
3.7032371 -5.8416276 2.2080078
3.7196541 -6.2024593 2.2177734
3.736094  -6.1455369 2.2275391
3.7525551 -5.8498979 2.2373047
3.7696054 -5.3618851 2.2470703
3.7860045 -5.1982698 2.2568359
3.802886  -5.7280064 2.2666016
3.8193495 -6.2510371 2.2763672
3.835747  -5.8324633 2.2861328
3.8519044 -5.4094195 2.2958984
3.8691838 -5.2600355 2.3056641
3.8855009 -5.317256 2.3154297
3.9018111 -5.4142623 2.3251953
3.9186416 -5.6423244 2.3349609
3.9354231 -5.9689579 2.3447266
3.9515593 -6.0094891 2.3544922
3.9683309 -6.1953812 2.3642578
3.9847059 -5.0870328 2.3740234
4.0016394 -5.2781401 2.3837891
4.0177832 -6.2268972 2.3935547
4.0342689 -6.2443314 2.4033203
4.0508943 -5.8109312 2.4130859
4.0669446 -5.9494376 2.4228516
4.084321  -5.2145867 2.4326172
4.1015229 -5.1160154 2.4423828
4.116735  -5.3458662 2.4521484
4.1337571 -6.0299783 2.4619141
4.1509352 -5.8059397 2.4716797
4.1667032 -5.4402647 2.4814453
4.1832442 -5.5607409 2.4912109

