MTS793|BTW|ENU|1|0|.|/|:|1|0|0|A

Data Header:                                                Time:     2.1591797 s         3/30/2023 12:38:21 PM
Data Acquisition: Timed
Station Name: 10504712.cfg
Test File Name: Tracción.tst
Axial Displacement Axial Force Running Time
mm        N         s
-4.0279701e-06 0.95784664 0.01953125
0.0033788499 2.7032943 0.029296875
0.016183348 11.483728 0.0390625
0.034156315 23.238436 0.048828125
0.051219635 35.876854 0.05859375
0.067486651 47.738701 0.068359375
0.084341608 59.208199 0.078125
0.10021875 70.545151 0.087890625
0.1169393 81.140175 0.09765625
0.13442419 92.438232 0.10742188
0.15038201 103.43358 0.1171875
0.16667166 115.72666 0.12695313
0.18338953 127.27872 0.13671875
0.20030415 138.12817 0.14648438
0.21563977 149.0695 0.15625
0.23278931 159.40912 0.16601563
0.24907185 170.52687 0.17578125
0.26536414 181.86711 0.18554688
0.28267634 193.38496 0.1953125
0.2991167 204.40259 0.20507813
0.31516999 215.22723 0.21484375
0.33229408 225.70393 0.22460938
0.34867591 236.0148 0.234375
0.36516708 246.92952 0.24414063
0.38171625 257.77661 0.25390625
0.39810231 269.04608 0.26367188
0.41447517 279.61374 0.2734375
0.43108153 290.20065 0.28320313
0.44739649 299.67075 0.29296875
0.4646109 310.13333 0.30273438
0.48117265 321.35361 0.3125
0.49701655 332.05145 0.32226563
0.51431018 343.16397 0.33203125
0.53104758 352.80042 0.34179688
0.54783249 363.08252 0.3515625
0.56322128 372.52759 0.36132813
0.57945186 382.9404 0.37109375
0.5968796 394.00204 0.38085938
0.61358398 404.29498 0.390625
0.62922472 413.76993 0.40039063
0.64704716 423.72256 0.41015625
0.66338927 433.1055 0.41992188
0.67953783 442.87848 0.4296875
0.69629759 453.15756 0.43945313
0.71307248 462.9494 0.44921875
0.72938132 472.40659 0.45898438
0.74588484 480.83231 0.46875
0.76171559 489.51233 0.47851563
0.77902704 499.00754 0.48828125
0.79578227 508.95316 0.49804688
0.81194389 518.0097 0.5078125
0.82877207 526.39008 0.51757813
0.8448059 534.61664 0.52734375
0.86160874 542.70898 0.53710938
0.87820798 550.8598 0.546875
0.89467078 558.99481 0.55664063
0.91170752 567.35065 0.56640625
0.92788208 575.79449 0.57617188
0.94413275 583.17828 0.5859375
0.96078992 589.7901 0.59570313
0.97775137 596.34076 0.60546875
0.99419737 603.68719 0.61523438
1.0104573 609.86615 0.625
1.0266461 615.94733 0.63476563
1.0439233 621.89288 0.64453125
1.0601091 626.81354 0.65429688
1.0769359 631.66193 0.6640625
1.0949081 634.95508 0.67382813
1.110231  638.95544 0.68359375
1.1260266 642.17896 0.69335938
1.1434561 644.49628 0.703125
1.1604908 645.66638 0.71289063
1.176905  645.14801 0.72265625
1.1933943 643.52173 0.73242188
1.2098252 641.33789 0.7421875
1.22676   637.86078 0.75195313
1.243104  634.79486 0.76171875
1.2595079 629.75641 0.77148438
1.2764494 624.33789 0.78125
1.2925217 618.7832  0.79101563
1.31022   613.75299 0.80078125
1.326426  609.1626  0.81054688
1.3430662 605.3728  0.8203125
1.3601705 601.04645 0.83007813
1.3766384 597.09351 0.83984375
1.3924706 593.39105 0.84960938
1.4096345 590.1803  0.859375
1.4268787 587.47723 0.86914063
1.4429237 585.25909 0.87890625
1.4605925 583.25397 0.88867188
1.4768318 580.66254 0.8984375
1.4929342 578.06793 0.90820313
1.5091126 576.45911 0.91796875
1.5260768 574.30432 0.92773438
1.5428584 573.10052 0.9375
1.5601093 571.89905 0.94726563
1.5756338 570.64801 0.95703125
1.592461  568.73285 0.96679688
1.6089233 566.99921 0.9765625
1.6265025 565.07056 0.98632813
1.6422019 564.64325 0.99609375
1.6591939 563.94647 1.0058594
1.675988  562.78357 1.015625
1.6921839 562.00519 1.0253906
1.7090852 560.14124 1.0351563
1.7255658 559.70862 1.0449219
1.741781  558.12012 1.0546875
1.7593098 557.81177 1.0644531
1.775214  557.42676 1.0742188
1.7923609 556.65405 1.0839844
1.808607  555.84125 1.09375
1.8253814 554.62531 1.1035156
1.8416227 553.58734 1.1132813
1.858305  553.26349 1.1230469
1.8744969 552.89813 1.1328125
1.8907281 552.41064 1.1425781
1.9087303 551.48163 1.1523438
1.9244123 550.59735 1.1621094
1.9409719 549.39331 1.171875
1.9578449 549.4408  1.1816406
1.9739115 549.62109 1.1914063
1.9909618 549.05951 1.2011719
2.0080402 548.84796 1.2109375
2.0242131 547.66614 1.2207031
2.04054   546.43933 1.2304688
2.0572493 545.86115 1.2402344
2.074338  546.07697 1.25
2.090668  545.29559 1.2597656
2.1069293 544.31531 1.2695313
2.1231892 543.62183 1.2792969
2.139997  543.11816 1.2890625
2.1564555 541.52704 1.2988281
2.1731973 540.9389  1.3085938
2.1897073 540.14557 1.3183594
2.2065692 540.06091 1.328125
2.2236245 539.06775 1.3378906
2.2400122 537.1488  1.3476563
2.2561109 535.5025  1.3574219
2.2733333 533.5741  1.3671875
2.2898974 530.62805 1.3769531
2.3066859 521.76599 1.3867188
2.3232307 513.53943 1.3964844
2.3393774 505.16315 1.40625
2.3565607 496.36185 1.4160156
2.3734183 486.62808 1.4257813
2.3899884 468.27029 1.4355469
2.4078689 436.0329  1.4453125
2.4308653 50.943569 1.4550781
2.4493794 35.9641   1.4648438
2.4598844 -3.9075315 1.4746094
2.4755361 -13.742373 1.484375
2.4930027 -4.8317761 1.4941406
2.5099158 -2.0126252 1.5039063
2.5262849 0.016018748 1.5136719
2.5427318 -3.6177039 1.5234375
2.5589938 -9.942874 1.5332031
2.5760033 -7.1663408 1.5429688
2.5920415 1.3358146 1.5527344
2.6088963 0.93214214 1.5625
2.6262345 -3.9410591 1.5722656
2.6418257 -4.4877081 1.5820313
2.6590915 -5.0248952 1.5917969
2.6760378 -5.0857663 1.6015625
2.6910715 -3.6494434 1.6113281
2.7083547 -2.8892608 1.6210938
2.7242935 -1.7797947 1.6308594
2.7408431 -1.4320761 1.640625
2.7573986 -2.5734305 1.6503906
2.7748318 -4.1776152 1.6601563
2.7908087 -5.1201134 1.6699219
2.8071592 -5.0702691 1.6796875
2.8242309 -3.9813666 1.6894531
2.8403897 -2.660975 1.6992188
2.857255  -2.9937177 1.7089844
2.8738372 -3.6150217 1.71875
2.8907323 -4.3013692 1.7285156
2.9070067 -4.4171515 1.7382813
2.9234006 -3.8824975 1.7480469
2.9398818 -4.0129571 1.7578125
2.9564946 -3.5028906 1.7675781
2.9721613 -3.2262504 1.7773438
2.9902134 -3.5486369 1.7871094
3.0058215 -4.0013342 1.796875
3.0228477 -4.3945017 1.8066406
3.03932   -3.9766729 1.8164063
3.0553355 -3.2843649 1.8261719
3.0720057 -3.5334377 1.8359375
3.0882809 -3.8126111 1.8457031
3.1057043 -3.9997697 1.8554688
3.1222961 -4.5760722 1.8652344
3.1388974 -3.7530808 1.875
3.155786  -3.9132686 1.8847656
3.1714439 -3.8484483 1.8945313
3.1887422 -3.8940458 1.9042969
3.2052236 -3.918633 1.9140625
3.221333  -4.3445826 1.9238281
3.2380276 -4.2768569 1.9335938
3.2548676 -3.585443 1.9433594
3.2713747 -3.2637267 1.953125
3.288022  -3.7693233 1.9628906
3.3041368 -3.7525594 1.9726563
3.3204565 -4.5907497 1.9824219
3.3373399 -4.5815854 1.9921875
3.3547397 -3.7662685 2.0019531
3.3709221 -3.5102665 2.0117188
3.3876467 -3.4874678 2.0214844
3.4036851 -4.060194 2.03125
3.4197893 -4.5151262 2.0410156
3.4368975 -4.6914816 2.0507813
3.4532251 -4.0151925 2.0605469
3.4698539 -3.7141891 2.0703125
3.4864414 -3.490448 2.0800781
3.5036294 -4.3188782 2.0898438
3.5194511 -4.046783 2.0996094
3.5355463 -4.6654043 2.109375
3.5528755 -4.1475892 2.1191406
3.5697708 -4.1531773 2.1289063
3.5856221 -3.8104506 2.1386719
3.6028917 -3.9081275 2.1484375

